 Y2O3 Density=4.457
 Wavelength (nm), Delta, Beta
  5.  0.00460161781  0.00450565759
  5.10506058  0.00468491903  0.00460118288
  5.21232891  0.00476474641  0.00468308153
  5.32185078  0.00485665025  0.00475582015
  5.43367434  0.00495314924  0.00483162235
  5.54784727  0.00504634622  0.00490322756
  5.66441965  0.00514569134  0.00495911064
  5.78344107  0.00525392359  0.00501759537
  5.90496349  0.00535903266  0.00507946732
  6.02903891  0.00544387614  0.00514498027
  6.15572214  0.00547761377  0.00515711727
  6.2850666  0.00555619411  0.0051032058
  6.41712952  0.00565337436  0.00503838761
  6.55196714  0.0057309363  0.00490439497
  6.68963814  0.00589575013  0.00468160305
  6.83020115  0.00614621909  0.00446593808
  6.97371864  0.00644390238  0.00420685718
  7.12025118  0.00685002096  0.00392982084
  7.26986313  0.00733838929  0.00368704437
  7.42261791  0.00791301858  0.00344628887
  7.57858276  0.00860208739  0.00328196958
  7.73782492  0.00930895191  0.00321036181
  7.90041351  0.0100398064  0.00319082174
  8.06641769  0.0107750241  0.00324839726
  8.23591042  0.0114676682  0.00333453575
  8.40896416  0.0121572744  0.00336811761
  8.58565426  0.012919927  0.00338642439
  8.76605797  0.0137499347  0.0034662995
  8.95025063  0.0145887807  0.00358338142
  9.1383152  0.0154543221  0.00372642581
  9.3303299  0.0163384359  0.00389796705
  9.52638054  0.0172439255  0.00408291863
  9.72654915  0.0181749389  0.00428980961
  9.93092537  0.0191339664  0.00451033097
  10.139595  0.0201280266  0.00474739913
  10.3526497  0.021152081  0.00500366325
  10.5701809  0.022211574  0.00527622271
  10.7922831  0.0233100057  0.00556601863
  11.0190506  0.0244492106  0.00587446429
  11.2505856  0.0256302357  0.00620468846
  11.4869833  0.0268542767  0.0065562455
  11.7283497  0.0281222202  0.00693022646
  11.9747877  0.0294310767  0.00732529815
  12.2264023  0.0307878498  0.00773624796
  12.4833059  0.0321904048  0.00817329623
  12.7456074  0.0336348787  0.0085936375
  13.0134192  0.0351763926  0.00902253482
  13.2868586  0.0367991775  0.00948354788
  13.5660439  0.0384987481  0.00997310504
  13.8510952  0.0402824357  0.0104899723
  14.1421356  0.0421570875  0.0110357283
  14.439292  0.0441336147  0.0116120428
  14.7426929  0.0462304465  0.0122491429
  15.0524673  0.0484108552  0.0129474867
  15.3687525  0.0506898947  0.0136858318
  15.6916819  0.0530863404  0.0144664198
  16.0213985  0.0556258932  0.0152917532
  16.3580418  0.0583311692  0.0162166096
  16.7017593  0.0611466803  0.0172491297
  17.0526981  0.0640906766  0.0183525588
  17.4110107  0.0672122166  0.0195437949
  17.7768536  0.0704936236  0.0208794698
  18.150383  0.0739077181  0.0223410819
  18.5317612  0.0774833784  0.0239166338
  18.921154  0.0812408924  0.0256158989
  19.3187275  0.0852075517  0.0274498481
  19.7246552  0.0894347206  0.0294305179
  20.1391125  0.0939870402  0.0316761732
  20.5622768  0.0987346023  0.0342835896
  20.9943352  0.103647679  0.0371811204
  21.4354706  0.108769596  0.0403889492
  21.8858738  0.114108764  0.0439473689
  22.3457432  0.119659632  0.0479031689
  22.8152752  0.125408322  0.0523092821
  23.2946739  0.131313995  0.0572270826
  23.7841434  0.137355462  0.0625750422
  24.2838974  0.143622965  0.0684810951
  24.7941551  0.150055662  0.0750669688
  25.3151321  0.156536937  0.0824228078
  25.8470573  0.16301465  0.0903367847
  26.3901596  0.169716567  0.0990942419
  26.9446735  0.176478907  0.108926654
  27.5108376  0.183094248  0.119982041
  28.0888977  0.189312637  0.132432297
  28.6791058  0.194719151  0.146473169
  29.2817135  0.198215574  0.162194386
  29.896986  0.20004648  0.176076069
  30.5251865  0.202627808  0.19064641
  31.166584  0.204991326  0.206539661
  31.8214607  0.206611395  0.223885879
  32.490097  0.20714651  0.242821217
  33.1727829  0.206197098  0.263502598
  33.8698158  0.20297417  0.286074847
  34.5814896  0.196385488  0.310184926
  35.3081207  0.186239138  0.335859329
  36.0500183  0.168908522  0.363841474
  36.8075104  0.145765722  0.38160792
  37.5809135  0.123183563  0.399289608
  38.3705673  0.0952573419  0.416023642
  39.176815  0.0657042563  0.425311595
  40.  0.0346177518  0.434224486
